   0.0000    439989
   0.0050    368821
   0.0100    308001
   0.0150    258574
   0.0200    227083
   0.0250    202422
   0.0300    184492
   0.0350    173941
   0.0400    165405
   0.0450    156992
   0.0500    150332
   0.0550    141972
   0.0600    133342
   0.0650    125480
   0.0700    116290
   0.0750    109240
   0.0800    103668
   0.0850     96783
   0.0900     90479
   0.0950     84828
   0.1000     79222
   0.1050     73167
   0.1100     67128
   0.1150     61653
   0.1200     56232
   0.1250     51877
   0.1300     47426
   0.1350     43002
   0.1400     38244
   0.1450     34886
   0.1500     32272
   0.1550     29208
   0.1600     26535
   0.1650     23885
   0.1700     21236
   0.1750     19128
   0.1800     16699
   0.1850     14829
   0.1900     13283
   0.1950     11515
   0.2000      9651
   0.2050      7998
   0.2100      6630
   0.2150      5259
   0.2200      4141
   0.2250      3393
   0.2300      2762
   0.2350      2235
   0.2400      1993
   0.2450      1775
   0.2500      1610
   0.2550      1539
   0.2600      1460
   0.2650      1332
   0.2700      1223
   0.2750      1158
   0.2800      1119
   0.2850      1087
   0.2900      1046
   0.2950      1013
   0.3000      1069
   0.3050       984
   0.3100       963
   0.3150       865
   0.3200       934
   0.3250       881
   0.3300       845
   0.3350       875
   0.3400       819
   0.3450       778
   0.3500       766
   0.3550       766
   0.3600       731
   0.3650       805
   0.3700       768
   0.3750       781
   0.3800       714
   0.3850       715
   0.3900       745
   0.3950       708
   0.4000       673
   0.4050       603
   0.4100       600
   0.4150       551
   0.4200       527
   0.4250       465
   0.4300       501
   0.4350       459
   0.4400       416
   0.4450       368
   0.4500       369
   0.4550       284
   0.4600       276
   0.4650       231
   0.4700       214
   0.4750       178
   0.4800       136
   0.4850       141
   0.4900       150
   0.4950        81
   0.5000        95
   0.5050        74
   0.5100        74
   0.5150        64
   0.5200        70
   0.5250        66
   0.5300        77
   0.5350        77
   0.5400        61
   0.5450        72
   0.5500        68
   0.5550        68
   0.5600        63
   0.5650        60
   0.5700        63
   0.5750        58
   0.5800        52
   0.5850        47
   0.5900        49
   0.5950        57
   0.6000        63
   0.6050        50
   0.6100        70
   0.6150        65
   0.6200        47
   0.6250        53
   0.6300        47
   0.6350        36
   0.6400        46
   0.6450        44
   0.6500        57
   0.6550        61
   0.6600        56
   0.6650        48
   0.6700        48
   0.6750        26
   0.6800        40
   0.6850        39
   0.6900        36
   0.6950        47
   0.7000        48
   0.7050        46
   0.7100        49
   0.7150        44
   0.7200        43
   0.7250        40
   0.7300        33
   0.7350        37
   0.7400        36
   0.7450        37
   0.7500        29
   0.7550        24
   0.7600        48
   0.7650        38
   0.7700        29
   0.7750        24
   0.7800        28
   0.7850        29
   0.7900        36
   0.7950        25
   0.8000        29
   0.8050        28
   0.8100        34
   0.8150        43
   0.8200        31
   0.8250        35
   0.8300        21
   0.8350        29
   0.8400        35
   0.8450        21
   0.8500        22
   0.8550        31
   0.8600        25
   0.8650        31
   0.8700        29
   0.8750        29
   0.8800        23
   0.8850        23
   0.8900        23
   0.8950        26
   0.9000        21
   0.9050        14
   0.9100        27
   0.9150        22
   0.9200        18
   0.9250        15
   0.9300        27
   0.9350        12
   0.9400        15
   0.9450        25
   0.9500        18
   0.9550        14
   0.9600        11
   0.9650        19
   0.9700        20
   0.9750        19
   0.9800        20
   0.9850        17
   0.9900        25
   0.9950        20
   1.0000        14
   1.0050        10
   1.0100         7
   1.0150        12
   1.0200        16
   1.0250        11
   1.0300        24
   1.0350        17
   1.0400        17
   1.0450        12
   1.0500        12
   1.0550        12
   1.0600         8
   1.0650        15
   1.0700         9
   1.0750        14
   1.0800        11
   1.0850        19
   1.0900        10
   1.0950        11
   1.1000        12
   1.1050         9
   1.1100         9
   1.1150         7
   1.1200        13
   1.1250         9
   1.1300        11
   1.1350        12
   1.1400         8
   1.1450        10
   1.1500        11
   1.1550        10
   1.1600         8
   1.1650         7
   1.1700         8
   1.1750         4
   1.1800        10
   1.1850        10
   1.1900        13
   1.1950         5
   1.2000         6
   1.2050         8
   1.2100         8
   1.2150         5
   1.2200         8
   1.2250         6
   1.2300         5
   1.2350         5
   1.2400         4
   1.2450         5
   1.2500         1
   1.2550         8
   1.2600         7
   1.2650         6
   1.2700        10
   1.2750         6
   1.2800        10
   1.2850         5
   1.2900         4
   1.2950         5
   1.3000         8
   1.3050         6
   1.3100         3
   1.3150         2
   1.3200         7
   1.3250         4
   1.3300         5
   1.3350         4
   1.3400         5
   1.3450         7
   1.3500         4
   1.3550         8
   1.3600         9
   1.3650         4
   1.3700         2
   1.3750         5
   1.3800         8
   1.3850         2
   1.3900         6
   1.3950         5
   1.4000         2
   1.4050         5
   1.4100         4
   1.4150         3
   1.4200         3
   1.4250         3
   1.4300         3
   1.4350         4
   1.4400         3
   1.4450         3
   1.4500         4
   1.4550         3
   1.4600         6
   1.4650         4
   1.4700         4
   1.4750         2
   1.4800         1
   1.4850         3
   1.4900         2
   1.4950         1
   1.5000         4
   1.5050         3
   1.5100         4
   1.5150         3
   1.5200         2
   1.5250         5
   1.5300         2
   1.5350         4
   1.5400         4
   1.5450         0
   1.5500         4
   1.5550         3
   1.5600         1
   1.5650         3
   1.5700         4
   1.5750         4
   1.5800         0
   1.5850         4
   1.5900         6
   1.5950         2
   1.6000         0
   1.6050         1
   1.6100         4
   1.6150         1
   1.6200         2
   1.6250         3
   1.6300         3
   1.6350         1
   1.6400         4
   1.6450         3
   1.6500         3
   1.6550         5
   1.6600         2
   1.6650         4
   1.6700         0
   1.6750         5
   1.6800         2
   1.6850         2
   1.6900         3
   1.6950         1
   1.7000         1
   1.7050         3
   1.7100         3
   1.7150         3
   1.7200         1
   1.7250         2
   1.7300         3
   1.7350         2
   1.7400         2
   1.7450         0
   1.7500         3
   1.7550         2
   1.7600         1
   1.7650         3
   1.7700         1
   1.7750         2
   1.7800         2
   1.7850         1
   1.7900         2
   1.7950         0
   1.8000         0
   1.8050         0
   1.8100         0
   1.8150         1
   1.8200         2
   1.8250         2
   1.8300         3
   1.8350         1
   1.8400         1
   1.8450         1
   1.8500         2
   1.8550         2
   1.8600         2
   1.8650         4
   1.8700         0
   1.8750         1
   1.8800         1
   1.8850         2
   1.8900         1
   1.8950         0
   1.9000         3
   1.9050         1
   1.9100         1
   1.9150         0
   1.9200         1
   1.9250         1
   1.9300         1
   1.9350         2
   1.9400         2
   1.9450         0
   1.9500         1
   1.9550         2
   1.9600         2
   1.9650         1
   1.9700         2
   1.9750         0
   1.9800         1
   1.9850         1
   1.9900         1
   1.9950         0
   2.0000         1
   2.0050         0
   2.0100         0
   2.0150         1
   2.0200         2
   2.0250         1
   2.0300         3
   2.0350         1
   2.0400         0
   2.0450         1
   2.0500         0
   2.0550         2
   2.0600         0
   2.0650         0
   2.0700         0
   2.0750         0
   2.0800         2
   2.0850         0
   2.0900         1
   2.0950         0
   2.1000         1
   2.1050         1
   2.1100         0
   2.1150         1
   2.1200         4
   2.1250         3
   2.1300         1
   2.1350         0
   2.1400         1
   2.1450         0
   2.1500         1
   2.1550         0
   2.1600         0
   2.1650         1
   2.1700         0
   2.1750         1
   2.1800         1
   2.1850         1
   2.1900         1
   2.1950         3
   2.2000         1
   2.2050         2
   2.2100         0
   2.2150         1
   2.2200         2
   2.2250         1
   2.2300         1
   2.2350         0
   2.2400         2
   2.2450         1
   2.2500         0
   2.2550         2
   2.2600         1
   2.2650         3
   2.2700         1
   2.2750         1
   2.2800         0
   2.2850         0
   2.2900         0
   2.2950         0
   2.3000         1
   2.3050         1
   2.3100         3
   2.3150         1
   2.3200         1
   2.3250         1
   2.3300         1
   2.3350         0
   2.3400         2
   2.3450         0
   2.3500         0
   2.3550         0
   2.3600         0
   2.3650         2
   2.3700         0
   2.3750         1
   2.3800         2
   2.3850         1
   2.3900         1
   2.3950         0
   2.4000         0
   2.4050         0
   2.4100         0
   2.4150         2
   2.4200         1
   2.4250         2
   2.4300         1
   2.4350         3
   2.4400         1
   2.4450         1
   2.4500         2
   2.4550         0
   2.4600         3
   2.4650         1
   2.4700         1
   2.4750         1
   2.4800         2
   2.4850         1
   2.4900         1
   2.4950         2
   2.5000         0
