   0.0000   2179570
   0.0050   2206030
   0.0100   2229620
   0.0150   2259220
   0.0200   2276200
   0.0250   2311850
   0.0300   2380330
   0.0350   2417600
   0.0400   2458170
   0.0450   2468920
   0.0500   2461640
   0.0550   2401160
   0.0600   2279750
   0.0650   2085810
   0.0700   1835940
   0.0750   1542270
   0.0800   1228210
   0.0850    924529
   0.0900    688933
   0.0950    511799
   0.1000    373394
   0.1050    300916
   0.1100    267040
   0.1150    244428
   0.1200    220210
   0.1250    189710
   0.1300    153667
   0.1350    121281
   0.1400     99812
   0.1450     89618
   0.1500     87751
   0.1550     90668
   0.1600     90473
   0.1650     85490
   0.1700     75801
   0.1750     62869
   0.1800     50925
   0.1850     42837
   0.1900     39600
   0.1950     40002
   0.2000     42228
   0.2050     43849
   0.2100     43799
   0.2150     40372
   0.2200     35334
   0.2250     29053
   0.2300     23955
   0.2350     21209
   0.2400     20379
   0.2450     21757
   0.2500     23281
   0.2550     24192
   0.2600     24171
   0.2650     22068
   0.2700     19065
   0.2750     15891
   0.2800     13213
   0.2850     12008
   0.2900     11861
   0.2950     12778
   0.3000     13662
   0.3050     14442
   0.3100     14332
   0.3150     13037
   0.3200     11331
   0.3250      9439
   0.3300      7963
   0.3350      7153
   0.3400      7206
   0.3450      7539
   0.3500      8172
   0.3550      8648
   0.3600      8566
   0.3650      8048
   0.3700      7082
   0.3750      6009
   0.3800      5049
   0.3850      4407
   0.3900      4370
   0.3950      4490
   0.4000      4869
   0.4050      5365
   0.4100      5319
   0.4150      5196
   0.4200      4651
   0.4250      4082
   0.4300      3360
   0.4350      2982
   0.4400      2845
   0.4450      2810
   0.4500      3025
   0.4550      3363
   0.4600      3451
   0.4650      3458
   0.4700      3144
   0.4750      2854
   0.4800      2470
   0.4850      2089
   0.4900      1871
   0.4950      1930
   0.5000      2082
   0.5050      2243
   0.5100      2369
   0.5150      2376
   0.5200      2320
   0.5250      2044
   0.5300      1818
   0.5350      1537
   0.5400      1401
   0.5450      1338
   0.5500      1378
   0.5550      1508
   0.5600      1632
   0.5650      1722
   0.5700      1674
   0.5750      1529
   0.5800      1397
   0.5850      1229
   0.5900      1068
   0.5950       997
   0.6000      1033
   0.6050       999
   0.6100      1105
   0.6150      1157
   0.6200      1190
   0.6250      1174
   0.6300      1071
   0.6350       840
   0.6400       786
   0.6450       693
   0.6500       704
   0.6550       731
   0.6600       787
   0.6650       866
   0.6700       870
   0.6750       845
   0.6800       795
   0.6850       715
   0.6900       627
   0.6950       555
   0.7000       537
   0.7050       509
   0.7100       520
   0.7150       631
   0.7200       643
   0.7250       647
   0.7300       591
   0.7350       564
   0.7400       478
   0.7450       451
   0.7500       382
   0.7550       365
   0.7600       400
   0.7650       433
   0.7700       424
   0.7750       464
   0.7800       444
   0.7850       439
   0.7900       375
   0.7950       381
   0.8000       313
   0.8050       299
   0.8100       280
   0.8150       314
   0.8200       314
   0.8250       360
   0.8300       349
   0.8350       339
   0.8400       316
   0.8450       282
   0.8500       245
   0.8550       224
   0.8600       226
   0.8650       234
   0.8700       254
   0.8750       255
   0.8800       279
   0.8850       274
   0.8900       234
   0.8950       217
   0.9000       195
   0.9050       195
   0.9100       165
   0.9150       176
   0.9200       178
   0.9250       175
   0.9300       188
   0.9350       172
   0.9400       211
   0.9450       208
   0.9500       163
   0.9550       136
   0.9600       131
   0.9650       123
   0.9700       125
   0.9750       147
   0.9800       145
   0.9850       165
   0.9900       180
   0.9950       148
   1.0000       143
   1.0050       100
   1.0100       117
   1.0150       103
   1.0200        92
   1.0250       102
   1.0300       129
   1.0350       126
   1.0400       112
   1.0450       104
   1.0500       114
   1.0550       109
   1.0600        77
   1.0650        79
   1.0700        85
   1.0750        79
   1.0800        75
   1.0850        93
   1.0900       106
   1.0950        95
   1.1000        91
   1.1050        96
   1.1100        78
   1.1150        82
   1.1200        65
   1.1250        73
   1.1300        59
   1.1350        62
   1.1400        71
   1.1450        75
   1.1500        77
   1.1550        73
   1.1600        77
   1.1650        51
   1.1700        45
   1.1750        47
   1.1800        53
   1.1850        42
   1.1900        43
   1.1950        69
   1.2000        51
   1.2050        51
   1.2100        48
   1.2150        50
   1.2200        34
   1.2250        50
   1.2300        36
   1.2350        34
   1.2400        45
   1.2450        44
   1.2500        41
   1.2550        45
   1.2600        43
   1.2650        40
   1.2700        40
   1.2750        37
   1.2800        35
   1.2850        21
   1.2900        39
   1.2950        30
   1.3000        28
   1.3050        40
   1.3100        34
   1.3150        46
   1.3200        28
   1.3250        32
   1.3300        30
   1.3350        30
   1.3400        27
   1.3450        25
   1.3500        34
   1.3550        26
   1.3600        27
   1.3650        36
   1.3700        21
   1.3750        30
   1.3800        16
   1.3850        16
   1.3900        27
   1.3950        19
   1.4000        19
   1.4050        21
   1.4100        20
   1.4150        21
   1.4200        27
   1.4250        24
   1.4300        19
   1.4350        20
   1.4400        23
   1.4450         9
   1.4500        11
   1.4550        11
   1.4600        17
   1.4650        15
   1.4700        22
   1.4750        23
   1.4800        17
   1.4850        15
   1.4900        16
   1.4950        15
   1.5000         6
   1.5050         8
   1.5100        15
   1.5150        13
   1.5200        17
   1.5250        13
   1.5300        10
   1.5350        14
   1.5400        10
   1.5450        10
   1.5500        14
   1.5550        17
   1.5600         9
   1.5650        11
   1.5700        11
   1.5750        12
   1.5800        13
   1.5850         8
   1.5900        11
   1.5950        12
   1.6000        10
   1.6050         8
   1.6100         8
   1.6150        16
   1.6200         9
   1.6250        12
   1.6300         8
   1.6350         5
   1.6400         5
   1.6450        10
   1.6500        13
   1.6550         5
   1.6600         6
   1.6650         8
   1.6700         8
   1.6750         8
   1.6800         6
   1.6850        11
   1.6900         6
   1.6950         7
   1.7000         8
   1.7050         7
   1.7100         7
   1.7150         3
   1.7200         8
   1.7250         7
   1.7300         9
   1.7350         7
   1.7400         5
   1.7450         8
   1.7500         3
   1.7550         5
   1.7600         5
   1.7650         4
   1.7700         4
   1.7750         9
   1.7800         7
   1.7850         8
   1.7900         3
   1.7950         2
   1.8000         5
   1.8050         6
   1.8100         6
   1.8150         6
   1.8200         4
   1.8250         4
   1.8300         2
   1.8350         5
   1.8400         5
   1.8450         7
   1.8500         6
   1.8550         1
   1.8600         7
   1.8650         4
   1.8700         2
   1.8750         0
   1.8800         6
   1.8850         5
   1.8900         2
   1.8950         5
   1.9000         0
   1.9050         5
   1.9100         2
   1.9150         3
   1.9200         3
   1.9250         2
   1.9300         7
   1.9350         5
   1.9400         5
   1.9450         6
   1.9500         1
   1.9550         7
   1.9600         4
   1.9650         5
   1.9700         1
   1.9750         2
   1.9800         3
   1.9850         2
   1.9900         4
   1.9950         3
   2.0000         2
   2.0050         3
   2.0100         2
   2.0150         4
   2.0200         2
   2.0250         2
   2.0300         1
   2.0350         5
   2.0400         5
   2.0450         2
   2.0500         7
   2.0550         3
   2.0600         2
   2.0650         1
   2.0700         4
   2.0750         3
   2.0800         4
   2.0850         3
   2.0900         2
   2.0950         3
   2.1000         3
   2.1050         1
   2.1100         6
   2.1150         3
   2.1200         2
   2.1250         4
   2.1300         5
   2.1350         1
   2.1400         2
   2.1450         0
   2.1500         1
   2.1550         2
   2.1600         5
   2.1650         1
   2.1700         2
   2.1750         2
   2.1800         2
   2.1850         1
   2.1900         4
   2.1950         1
   2.2000         1
   2.2050         2
   2.2100         2
   2.2150         5
   2.2200         1
   2.2250         1
   2.2300         0
   2.2350         2
   2.2400         3
   2.2450         0
   2.2500         1
   2.2550         1
   2.2600         0
   2.2650         0
   2.2700         2
   2.2750         1
   2.2800         0
   2.2850         1
   2.2900         2
   2.2950         1
   2.3000         3
   2.3050         3
   2.3100         2
   2.3150         3
   2.3200         1
   2.3250         2
   2.3300         3
   2.3350         3
   2.3400         1
   2.3450         0
   2.3500         3
   2.3550         2
   2.3600         3
   2.3650         1
   2.3700         1
   2.3750         1
   2.3800         3
   2.3850         1
   2.3900         3
   2.3950         0
   2.4000         0
   2.4050         1
   2.4100         1
   2.4150         0
   2.4200         2
   2.4250         2
   2.4300         2
   2.4350         3
   2.4400         1
   2.4450         1
   2.4500         1
   2.4550         1
   2.4600         2
   2.4650         0
   2.4700         0
   2.4750         3
   2.4800         1
   2.4850         2
   2.4900         0
   2.4950         4
   2.5000         1
