#Angle,       PSD,
	0,    439989,
0.005,    368821,
 0.01,    308001,
0.015,    258574,
 0.02,    227083,
0.025,    202422,
 0.03,    184492,
0.035,    173941,
 0.04,    165405,
0.045,    156992,
 0.05,    150332,
0.055,    141972,
 0.06,    133342,
0.065,    125480,
 0.07,    116290,
0.075,    109240,
 0.08,    103668,
0.085,     96783,
 0.09,     90479,
0.095,     84828,
  0.1,     79222,
0.105,     73167,
 0.11,     67128,
0.115,     61653,
 0.12,     56232,
0.125,     51877,
 0.13,     47426,
0.135,     43002,
 0.14,     38244,
0.145,     34886,
 0.15,     32272,
0.155,     29208,
 0.16,     26535,
0.165,     23885,
 0.17,     21236,
0.175,     19128,
 0.18,     16699,
0.185,     14829,
 0.19,     13283,
0.195,     11515,
  0.2,      9651,
0.205,      7998,
 0.21,      6630,
0.215,      5259,
 0.22,      4141,
0.225,      3393,
 0.23,      2762,
0.235,      2235,
 0.24,      1993,
0.245,      1775,
 0.25,      1610,
0.255,      1539,
 0.26,      1460,
0.265,      1332,
 0.27,      1223,
0.275,      1158,
 0.28,      1119,
0.285,      1087,
 0.29,      1046,
0.295,      1013,
  0.3,      1069,
0.305,       984,
 0.31,       963,
0.315,       865,
 0.32,       934,
0.325,       881,
 0.33,       845,
0.335,       875,
 0.34,       819,
0.345,       778,
 0.35,       766,
0.355,       766,
 0.36,       731,
0.365,       805,
 0.37,       768,
0.375,       781,
 0.38,       714,
0.385,       715,
 0.39,       745,
0.395,       708,
  0.4,       673,
0.405,       603,
 0.41,       600,
0.415,       551,
 0.42,       527,
0.425,       465,
 0.43,       501,
0.435,       459,
 0.44,       416,
0.445,       368,
 0.45,       369,
0.455,       284,
 0.46,       276,
0.465,       231,
 0.47,       214,
0.475,       178,
 0.48,       136,
0.485,       141,
 0.49,       150,
0.495,        81,
  0.5,        95,
0.505,        74,
 0.51,        74,
0.515,        64,
 0.52,        70,
0.525,        66,
 0.53,        77,
0.535,        77,
 0.54,        61,
0.545,        72,
 0.55,        68,
0.555,        68,
 0.56,        63,
0.565,        60,
 0.57,        63,
0.575,        58,
 0.58,        52,
0.585,        47,
 0.59,        49,
0.595,        57,
  0.6,        63,
0.605,        50,
 0.61,        70,
0.615,        65,
 0.62,        47,
0.625,        53,
 0.63,        47,
0.635,        36,
 0.64,        46,
0.645,        44,
 0.65,        57,
0.655,        61,
 0.66,        56,
0.665,        48,
 0.67,        48,
0.675,        26,
 0.68,        40,
0.685,        39,
 0.69,        36,
0.695,        47,
  0.7,        48,
0.705,        46,
 0.71,        49,
0.715,        44,
 0.72,        43,
0.725,        40,
 0.73,        33,
0.735,        37,
 0.74,        36,
0.745,        37,
 0.75,        29,
0.755,        24,
 0.76,        48,
0.765,        38,
 0.77,        29,
0.775,        24,
 0.78,        28,
0.785,        29,
 0.79,        36,
0.795,        25,
  0.8,        29,
0.805,        28,
 0.81,        34,
0.815,        43,
 0.82,        31,
0.825,        35,
 0.83,        21,
0.835,        29,
 0.84,        35,
0.845,        21,
 0.85,        22,
0.855,        31,
 0.86,        25,
0.865,        31,
 0.87,        29,
0.875,        29,
 0.88,        23,
0.885,        23,
 0.89,        23,
0.895,        26,
  0.9,        21,
0.905,        14,
 0.91,        27,
0.915,        22,
 0.92,        18,
0.925,        15,
 0.93,        27,
0.935,        12,
 0.94,        15,
0.945,        25,
 0.95,        18,
0.955,        14,
 0.96,        11,
0.965,        19,
 0.97,        20,
0.975,        19,
 0.98,        20,
0.985,        17,
 0.99,        25,
0.995,        20,
	1,        14,
1.005,        10,
 1.01,         7,
1.015,        12,
 1.02,        16,
1.025,        11,
 1.03,        24,
1.035,        17,
 1.04,        17,
1.045,        12,
 1.05,        12,
1.055,        12,
 1.06,         8,
1.065,        15,
 1.07,         9,
1.075,        14,
 1.08,        11,
1.085,        19,
 1.09,        10,
1.095,        11,
  1.1,        12,
1.105,         9,
 1.11,         9,
1.115,         7,
 1.12,        13,
1.125,         9,
 1.13,        11,
1.135,        12,
 1.14,         8,
1.145,        10,
 1.15,        11,
1.155,        10,
 1.16,         8,
1.165,         7,
 1.17,         8,
1.175,         4,
 1.18,        10,
1.185,        10,
 1.19,        13,
1.195,         5,
  1.2,         6,
1.205,         8,
 1.21,         8,
1.215,         5,
 1.22,         8,
1.225,         6,
 1.23,         5,
1.235,         5,
 1.24,         4,
1.245,         5,
 1.25,         1,
1.255,         8,
 1.26,         7,
1.265,         6,
 1.27,        10,
1.275,         6,
 1.28,        10,
1.285,         5,
 1.29,         4,
1.295,         5,
  1.3,         8,
1.305,         6,
 1.31,         3,
1.315,         2,
 1.32,         7,
1.325,         4,
 1.33,         5,
1.335,         4,
 1.34,         5,
1.345,         7,
 1.35,         4,
1.355,         8,
 1.36,         9,
1.365,         4,
 1.37,         2,
1.375,         5,
 1.38,         8,
1.385,         2,
 1.39,         6,
1.395,         5,
  1.4,         2,
1.405,         5,
 1.41,         4,
1.415,         3,
 1.42,         3,
1.425,         3,
 1.43,         3,
1.435,         4,
 1.44,         3,
1.445,         3,
 1.45,         4,
1.455,         3,
 1.46,         6,
1.465,         4,
 1.47,         4,
1.475,         2,
 1.48,         1,
1.485,         3,
 1.49,         2,
1.495,         1,
  1.5,         4,
1.505,         3,
 1.51,         4,
1.515,         3,
 1.52,         2,
1.525,         5,
 1.53,         2,
1.535,         4,
 1.54,         4,
1.545,         0,
 1.55,         4,
1.555,         3,
 1.56,         1,
1.565,         3,
 1.57,         4,
1.575,         4,
 1.58,         0,
1.585,         4,
 1.59,         6,
1.595,         2,
  1.6,         0,
1.605,         1,
 1.61,         4,
1.615,         1,
 1.62,         2,
1.625,         3,
 1.63,         3,
1.635,         1,
 1.64,         4,
1.645,         3,
 1.65,         3,
1.655,         5,
 1.66,         2,
1.665,         4,
 1.67,         0,
1.675,         5,
 1.68,         2,
1.685,         2,
 1.69,         3,
1.695,         1,
  1.7,         1,
1.705,         3,
 1.71,         3,
1.715,         3,
 1.72,         1,
1.725,         2,
 1.73,         3,
1.735,         2,
 1.74,         2,
1.745,         0,
 1.75,         3,
1.755,         2,
 1.76,         1,
1.765,         3,
 1.77,         1,
1.775,         2,
 1.78,         2,
1.785,         1,
 1.79,         2,
1.795,         0,
  1.8,         0,
1.805,         0,
 1.81,         0,
1.815,         1,
 1.82,         2,
1.825,         2,
 1.83,         3,
1.835,         1,
 1.84,         1,
1.845,         1,
 1.85,         2,
1.855,         2,
 1.86,         2,
1.865,         4,
 1.87,         0,
1.875,         1,
 1.88,         1,
1.885,         2,
 1.89,         1,
1.895,         0,
  1.9,         3,
1.905,         1,
 1.91,         1,
1.915,         0,
 1.92,         1,
1.925,         1,
 1.93,         1,
1.935,         2,
 1.94,         2,
1.945,         0,
 1.95,         1,
1.955,         2,
 1.96,         2,
1.965,         1,
 1.97,         2,
1.975,         0,
 1.98,         1,
1.985,         1,
 1.99,         1,
1.995,         0,
	2,         1,
2.005,         0,
 2.01,         0,
2.015,         1,
 2.02,         2,
2.025,         1,
 2.03,         3,
2.035,         1,
 2.04,         0,
2.045,         1,
 2.05,         0,
2.055,         2,
 2.06,         0,
2.065,         0,
 2.07,         0,
2.075,         0,
 2.08,         2,
2.085,         0,
 2.09,         1,
2.095,         0,
  2.1,         1,
2.105,         1,
 2.11,         0,
2.115,         1,
 2.12,         4,
2.125,         3,
 2.13,         1,
2.135,         0,
 2.14,         1,
2.145,         0,
 2.15,         1,
2.155,         0,
 2.16,         0,
2.165,         1,
 2.17,         0,
2.175,         1,
 2.18,         1,
2.185,         1,
 2.19,         1,
2.195,         3,
  2.2,         1,
2.205,         2,
 2.21,         0,
2.215,         1,
 2.22,         2,
2.225,         1,
 2.23,         1,
2.235,         0,
 2.24,         2,
2.245,         1,
 2.25,         0,
2.255,         2,
 2.26,         1,
2.265,         3,
 2.27,         1,
2.275,         1,
 2.28,         0,
2.285,         0,
 2.29,         0,
2.295,         0,
  2.3,         1,
2.305,         1,
 2.31,         3,
2.315,         1,
 2.32,         1,
2.325,         1,
 2.33,         1,
2.335,         0,
 2.34,         2,
2.345,         0,
 2.35,         0,
2.355,         0,
 2.36,         0,
2.365,         2,
 2.37,         0,
2.375,         1,
 2.38,         2,
2.385,         1,
 2.39,         1,
2.395,         0,
  2.4,         0,
2.405,         0,
 2.41,         0,
2.415,         2,
 2.42,         1,
2.425,         2,
 2.43,         1,
2.435,         3,
 2.44,         1,
2.445,         1,
 2.45,         2,
2.455,         0,
 2.46,         3,
2.465,         1,
 2.47,         1,
2.475,         1,
 2.48,         2,
2.485,         1,
 2.49,         1,
2.495,         2,
  2.5,         0,
