   0.0000   3644920
   0.0050   4025180
   0.0100   4128420
   0.0150   3900830
   0.0200   3361680
   0.0250   2719990
   0.0300   2135000
   0.0350   1692390
   0.0400   1405270
   0.0450   1258540
   0.0500   1196060
   0.0550   1183800
   0.0600   1198390
   0.0650   1212940
   0.0700   1250110
   0.0750   1298400
   0.0800   1352050
   0.0850   1407210
   0.0900   1466960
   0.0950   1529150
   0.1000   1588430
   0.1050   1650290
   0.1100   1705470
   0.1150   1766480
   0.1200   1824470
   0.1250   1883300
   0.1300   1936080
   0.1350   1991040
   0.1400   2038900
   0.1450   2070300
   0.1500   2098490
   0.1550   2120920
   0.1600   2135890
   0.1650   2167100
   0.1700   2201600
   0.1750   2251950
   0.1800   2290370
   0.1850   2328830
   0.1900   2343340
   0.1950   2333100
   0.2000   2279300
   0.2050   2176500
   0.2100   1998800
   0.2150   1777370
   0.2200   1503060
   0.2250   1205780
   0.2300    924363
   0.2350    689343
   0.2400    503694
   0.2450    360998
   0.2500    284825
   0.2550    249968
   0.2600    231664
   0.2650    213104
   0.2700    185119
   0.2750    151430
   0.2800    120348
   0.2850     96075
   0.2900     84198
   0.2950     82203
   0.3000     84382
   0.3050     85558
   0.3100     82103
   0.3150     74338
   0.3200     62456
   0.3250     50787
   0.3300     41711
   0.3350     37537
   0.3400     37212
   0.3450     39003
   0.3500     41291
   0.3550     41848
   0.3600     39082
   0.3650     34356
   0.3700     28296
   0.3750     23297
   0.3800     20277
   0.3850     19179
   0.3900     19896
   0.3950     21674
   0.4000     23053
   0.4050     22849
   0.4100     21299
   0.4150     18686
   0.4200     15615
   0.4250     13035
   0.4300     11388
   0.4350     11070
   0.4400     11818
   0.4450     12593
   0.4500     13218
   0.4550     13478
   0.4600     12721
   0.4650     11179
   0.4700      9269
   0.4750      7793
   0.4800      7006
   0.4850      6804
   0.4900      7048
   0.4950      7527
   0.5000      8230
   0.5050      8040
   0.5100      7861
   0.5150      6724
   0.5200      5742
   0.5250      4929
   0.5300      4267
   0.5350      4174
   0.5400      4322
   0.5450      4661
   0.5500      4833
   0.5550      5005
   0.5600      4875
   0.5650      4450
   0.5700      3871
   0.5750      3362
   0.5800      2893
   0.5850      2670
   0.5900      2725
   0.5950      3035
   0.6000      3163
   0.6050      3360
   0.6100      3281
   0.6150      3152
   0.6200      2783
   0.6250      2405
   0.6300      2040
   0.6350      1893
   0.6400      1856
   0.6450      1911
   0.6500      2042
   0.6550      2172
   0.6600      2335
   0.6650      2216
   0.6700      2006
   0.6750      1758
   0.6800      1467
   0.6850      1319
   0.6900      1195
   0.6950      1309
   0.7000      1439
   0.7050      1529
   0.7100      1558
   0.7150      1589
   0.7200      1477
   0.7250      1300
   0.7300      1141
   0.7350       988
   0.7400       876
   0.7450       905
   0.7500       956
   0.7550      1070
   0.7600      1166
   0.7650      1109
   0.7700      1113
   0.7750      1032
   0.7800       887
   0.7850       799
   0.7900       679
   0.7950       651
   0.8000       663
   0.8050       766
   0.8100       779
   0.8150       839
   0.8200       810
   0.8250       730
   0.8300       674
   0.8350       571
   0.8400       540
   0.8450       482
   0.8500       462
   0.8550       510
   0.8600       579
   0.8650       546
   0.8700       612
   0.8750       608
   0.8800       517
   0.8850       455
   0.8900       425
   0.8950       406
   0.9000       370
   0.9050       397
   0.9100       404
   0.9150       412
   0.9200       468
   0.9250       437
   0.9300       403
   0.9350       428
   0.9400       340
   0.9450       316
   0.9500       280
   0.9550       269
   0.9600       294
   0.9650       317
   0.9700       356
   0.9750       323
   0.9800       346
   0.9850       271
   0.9900       258
   0.9950       207
   1.0000       224
   1.0050       187
   1.0100       199
   1.0150       232
   1.0200       205
   1.0250       274
   1.0300       214
   1.0350       225
   1.0400       237
   1.0450       209
   1.0500       183
   1.0550       156
   1.0600       155
   1.0650       157
   1.0700       197
   1.0750       171
   1.0800       176
   1.0850       175
   1.0900       198
   1.0950       158
   1.1000       146
   1.1050       133
   1.1100       108
   1.1150       134
   1.1200       130
   1.1250       143
   1.1300       146
   1.1350       141
   1.1400       127
   1.1450       119
   1.1500       103
   1.1550       105
   1.1600       102
   1.1650        89
   1.1700       108
   1.1750       100
   1.1800       109
   1.1850       104
   1.1900       115
   1.1950        96
   1.2000        95
   1.2050        73
   1.2100        65
   1.2150        68
   1.2200        78
   1.2250        72
   1.2300        63
   1.2350        87
   1.2400        98
   1.2450        88
   1.2500        88
   1.2550        59
   1.2600        65
   1.2650        58
   1.2700        61
   1.2750        65
   1.2800        67
   1.2850        67
   1.2900        68
   1.2950        69
   1.3000        70
   1.3050        72
   1.3100        56
   1.3150        52
   1.3200        42
   1.3250        56
   1.3300        55
   1.3350        38
   1.3400        46
   1.3450        66
   1.3500        44
   1.3550        51
   1.3600        49
   1.3650        39
   1.3700        43
   1.3750        42
   1.3800        34
   1.3850        40
   1.3900        39
   1.3950        34
   1.4000        49
   1.4050        37
   1.4100        41
   1.4150        39
   1.4200        31
   1.4250        40
   1.4300        23
   1.4350        24
   1.4400        31
   1.4450        34
   1.4500        32
   1.4550        34
   1.4600        29
   1.4650        27
   1.4700        34
   1.4750        18
   1.4800        26
   1.4850        26
   1.4900        23
   1.4950        30
   1.5000        22
   1.5050        27
   1.5100        25
   1.5150        24
   1.5200        25
   1.5250        17
   1.5300        22
   1.5350        10
   1.5400        12
   1.5450        20
   1.5500        20
   1.5550        19
   1.5600        21
   1.5650        15
   1.5700        26
   1.5750        14
   1.5800        20
   1.5850        12
   1.5900        19
   1.5950        19
   1.6000        19
   1.6050         8
   1.6100        10
   1.6150        19
   1.6200        23
   1.6250        21
   1.6300        13
   1.6350         9
   1.6400        11
   1.6450         9
   1.6500        18
   1.6550        15
   1.6600         9
   1.6650         9
   1.6700        16
   1.6750        14
   1.6800         8
   1.6850        11
   1.6900        15
   1.6950         8
   1.7000        11
   1.7050         9
   1.7100        13
   1.7150        10
   1.7200         9
   1.7250         7
   1.7300        13
   1.7350        10
   1.7400        14
   1.7450        11
   1.7500         8
   1.7550         9
   1.7600        11
   1.7650         6
   1.7700         9
   1.7750        11
   1.7800         8
   1.7850         9
   1.7900        11
   1.7950        10
   1.8000         6
   1.8050        14
   1.8100        10
   1.8150        11
   1.8200         4
   1.8250         7
   1.8300         5
   1.8350         8
   1.8400         7
   1.8450         5
   1.8500         9
   1.8550         6
   1.8600         9
   1.8650         1
   1.8700         3
   1.8750         6
   1.8800         3
   1.8850         9
   1.8900         3
   1.8950         3
   1.9000         8
   1.9050         5
   1.9100        11
   1.9150         5
   1.9200         5
   1.9250         9
   1.9300         5
   1.9350         7
   1.9400         6
   1.9450         7
   1.9500         3
   1.9550         2
   1.9600         6
   1.9650         3
   1.9700         1
   1.9750         9
   1.9800        12
   1.9850         4
   1.9900         7
   1.9950         2
   2.0000         4
   2.0050         5
   2.0100         5
   2.0150         2
   2.0200         3
   2.0250         1
   2.0300         5
   2.0350         5
   2.0400         6
   2.0450         4
   2.0500         4
   2.0550         8
   2.0600         6
   2.0650         3
   2.0700         1
   2.0750         8
   2.0800         3
   2.0850         3
   2.0900         6
   2.0950         5
   2.1000         3
   2.1050         3
   2.1100         1
   2.1150         3
   2.1200         2
   2.1250         5
   2.1300         3
   2.1350         1
   2.1400         5
   2.1450         4
   2.1500         1
   2.1550         2
   2.1600         3
   2.1650         5
   2.1700         4
   2.1750         5
   2.1800         1
   2.1850         7
   2.1900         2
   2.1950         1
   2.2000         2
   2.2050         4
   2.2100         2
   2.2150         0
   2.2200         3
   2.2250         2
   2.2300         1
   2.2350         3
   2.2400         3
   2.2450         2
   2.2500         6
   2.2550         3
   2.2600         2
   2.2650         2
   2.2700         0
   2.2750         4
   2.2800         1
   2.2850         0
   2.2900         4
   2.2950         3
   2.3000         0
   2.3050         1
   2.3100         4
   2.3150         1
   2.3200         1
   2.3250         4
   2.3300         2
   2.3350         4
   2.3400         3
   2.3450         3
   2.3500         1
   2.3550         3
   2.3600         1
   2.3650         0
   2.3700         0
   2.3750         0
   2.3800         2
   2.3850         1
   2.3900         0
   2.3950         1
   2.4000         1
   2.4050         1
   2.4100         2
   2.4150         3
   2.4200         2
   2.4250         3
   2.4300         4
   2.4350         2
   2.4400         2
   2.4450         0
   2.4500         1
   2.4550         1
   2.4600         2
   2.4650         3
   2.4700         2
   2.4750         1
   2.4800         1
   2.4850         4
   2.4900         1
   2.4950         0
   2.5000         1
